# Phase, F_N(4.94),Q_N(4.94),U_N(4.94), PA, dop, PA_org
0.000000000e+00,2.462582087e-04,2.800927719e-07,-3.172563766e-07,-4.237661446e-01,1.718546962e-03,-2.034503262e+00
1.010101010e-02,2.333603373e-04,3.619081957e-07,-3.030360212e-07,-3.485457051e-01,2.022733695e-03,-1.886959189e+00
2.020202020e-02,2.241037276e-04,4.421270208e-07,-2.800638448e-07,-2.823251043e-01,2.335374299e-03,-1.873944852e+00
3.030303030e-02,2.115467998e-04,5.155678352e-07,-2.460641198e-07,-2.226486681e-01,2.700477114e-03,-1.796548258e+00
4.040404040e-02,2.007093305e-04,5.852081657e-07,-2.022728655e-07,-1.663938385e-01,3.084954849e-03,-1.723169147e+00
5.050505051e-02,1.901771441e-04,6.506916905e-07,-1.515245861e-07,-1.143947903e-01,3.513047402e-03,-1.672276144e+00
6.060606061e-02,1.820369120e-04,7.135158071e-07,-9.356559358e-08,-6.519459266e-02,3.953178654e-03,-1.625543217e+00
7.070707071e-02,1.711798183e-04,7.607856438e-07,-2.825473799e-08,-1.856091686e-02,4.447429290e-03,-1.588543663e+00
8.080808081e-02,1.635138668e-04,8.134926799e-07,3.958014330e-08,2.430811997e-02,4.980953630e-03,-1.538765356e+00
9.090909091e-02,1.544811733e-04,8.465304969e-07,1.108604579e-07,6.510878392e-02,5.526619750e-03,-1.488636515e+00
1.010101010e-01,1.472372956e-04,8.782090195e-07,1.859296802e-07,1.043169081e-01,6.096792847e-03,-1.464008416e+00
1.111111111e-01,1.391636531e-04,8.955474535e-07,2.619693582e-07,1.422921435e-01,6.704892018e-03,-1.429957734e+00
1.212121212e-01,1.315196410e-04,9.068480508e-07,3.414182853e-07,1.800377130e-01,7.367637794e-03,-1.420712622e+00
1.313131313e-01,1.240050260e-04,9.051647575e-07,4.193403973e-07,2.169192957e-01,8.044689092e-03,-1.352196306e+00
1.414141414e-01,1.177677915e-04,8.993928406e-07,5.016074418e-07,2.543746536e-01,8.744447819e-03,-1.318662259e+00
1.515151515e-01,1.114878696e-04,8.874440503e-07,5.768135066e-07,2.881776583e-01,9.493664598e-03,-1.283776982e+00
1.616161616e-01,1.059912435e-04,8.704414221e-07,6.569206592e-07,3.232506221e-01,1.028868428e-02,-1.197599137e+00
1.717171717e-01,1.000623895e-04,8.357928450e-07,7.286734164e-07,3.585172964e-01,1.108143441e-02,-1.233298733e+00
1.818181818e-01,9.531254723e-05,8.024951589e-07,8.026532693e-07,3.927483327e-01,1.190830984e-02,-1.218865124e+00
1.919191919e-01,9.042920331e-05,7.582161209e-07,8.716452792e-07,4.274402450e-01,1.277544859e-02,-1.118945312e+00
2.020202020e-01,8.608520167e-05,7.101848600e-07,9.368742379e-07,4.610858364e-01,1.365653694e-02,-1.115535535e+00
2.121212121e-01,8.170494441e-05,6.541421980e-07,9.976130884e-07,4.952096963e-01,1.460072904e-02,-1.091065672e+00
2.222222222e-01,7.811403094e-05,5.937662046e-07,1.058356682e-06,5.297634318e-01,1.553548185e-02,-1.036997714e+00
2.323232323e-01,7.391240918e-05,5.256773598e-07,1.115042833e-06,5.651277431e-01,1.667844121e-02,-1.024038542e+00
2.424242424e-01,7.064858057e-05,4.516449765e-07,1.153094597e-06,5.987411053e-01,1.752887615e-02,-9.525486760e-01
2.525252525e-01,6.795206358e-05,3.750974664e-07,1.198209259e-06,6.337059727e-01,1.847698262e-02,-9.427653722e-01
2.626262626e-01,6.471483552e-05,2.910760777e-07,1.244433551e-06,6.705123570e-01,1.974851602e-02,-9.267564266e-01
2.727272727e-01,6.234795165e-05,2.032329337e-07,1.278857908e-06,7.065983489e-01,2.076902002e-02,-8.936512222e-01
2.828282828e-01,6.007909464e-05,1.074681842e-07,1.298147899e-06,7.440994491e-01,2.168123088e-02,-8.501834738e-01
2.929292929e-01,5.799380075e-05,9.842938741e-09,1.327341475e-06,7.816904670e-01,2.288827345e-02,-7.836399395e-01
3.030303030e-01,5.557602519e-05,-9.391365415e-08,1.335053007e-06,8.205125768e-01,2.408146465e-02,-7.646989600e-01
3.131313131e-01,5.396468214e-05,-1.957197494e-07,1.336306689e-06,8.581127581e-01,2.502680371e-02,-7.138741995e-01
3.232323232e-01,5.235794505e-05,-3.044087673e-07,1.331763743e-06,8.977557550e-01,2.609176192e-02,-6.967212659e-01
3.333333333e-01,5.093155823e-05,-4.120205157e-07,1.323833568e-06,9.362631898e-01,2.722219825e-02,-6.409065442e-01
3.434343434e-01,4.964344235e-05,-5.298572767e-07,1.298210169e-06,9.791520025e-01,2.824494503e-02,-5.908927042e-01
3.535353535e-01,4.859760818e-05,-6.433678442e-07,1.264459024e-06,1.020733048e+00,2.919329597e-02,-5.642276174e-01
3.636363636e-01,4.791386642e-05,-7.631856181e-07,1.224580788e-06,1.064058009e+00,3.011510633e-02,-5.065343939e-01
3.737373737e-01,4.752451039e-05,-8.882026154e-07,1.182655936e-06,1.107476135e+00,3.112176481e-02,-4.825318849e-01
3.838383838e-01,4.729666536e-05,-1.010627849e-06,1.123091967e-06,1.151767606e+00,3.194436786e-02,-4.243866379e-01
3.939393939e-01,4.662486176e-05,-1.123422156e-06,1.044577674e-06,1.196272927e+00,3.290134826e-02,-3.517266830e-01
4.040404040e-01,4.683621719e-05,-1.251301298e-06,9.606341723e-07,1.243427169e+00,3.368165142e-02,-3.272666472e-01
4.141414141e-01,4.673535920e-05,-1.366502772e-06,8.570295758e-07,1.290717197e+00,3.451388386e-02,-3.020075662e-01
4.242424242e-01,4.764605783e-05,-1.486588789e-06,7.437071560e-07,1.338861472e+00,3.488728139e-02,-1.642904387e-01
4.343434343e-01,4.805883834e-05,-1.589890689e-06,6.069350222e-07,1.388460251e+00,3.541075582e-02,-2.225830529e-01
4.444444444e-01,4.938450467e-05,-1.711982286e-06,4.686446430e-07,1.437197319e+00,3.594179877e-02,-1.628852148e-01
4.545454545e-01,5.073355438e-05,-1.794081101e-06,3.020399446e-07,1.487401561e+00,3.586045230e-02,-1.210796454e-01
4.646464646e-01,5.274764022e-05,-1.889602001e-06,1.222204193e-07,1.538501059e+00,3.589829814e-02,-4.023890817e-02
4.747474747e-01,5.488518602e-05,-1.968776608e-06,-7.607170887e-08,-1.551486395e+00,3.589758682e-02,1.664859766e-02
4.848484848e-01,5.736419895e-05,-2.017074885e-06,-2.925265635e-07,-1.498785806e+00,3.553045975e-02,9.619686390e-02
4.949494949e-01,6.009508866e-05,-2.058583207e-06,-5.219025791e-07,-1.446649491e+00,3.533917236e-02,1.659095107e-01
5.050505051e-01,6.398882753e-05,-2.088278822e-06,-7.757852405e-07,-1.392949177e+00,3.481425435e-02,1.991477461e-01
5.151515152e-01,6.829010446e-05,-2.093964406e-06,-1.042717928e-06,-1.339787770e+00,3.425414946e-02,2.224990520e-01
5.252525253e-01,7.243565090e-05,-2.043435027e-06,-1.305020363e-06,-1.286622259e+00,3.347252399e-02,3.574149326e-01
5.353535354e-01,7.790211829e-05,-1.974032338e-06,-1.585912056e-06,-1.232394917e+00,3.250459842e-02,3.540963793e-01
5.454545455e-01,8.426734026e-05,-1.896261749e-06,-1.884113928e-06,-1.179703934e+00,3.172217219e-02,4.043154993e-01
5.555555556e-01,9.088896976e-05,-1.764385882e-06,-2.167928435e-06,-1.126965164e+00,3.075366874e-02,4.710798458e-01
5.656565657e-01,9.921722410e-05,-1.592776604e-06,-2.451347980e-06,-1.073499791e+00,2.946425713e-02,5.061836957e-01
5.757575758e-01,1.063923659e-04,-1.360862492e-06,-2.676139208e-06,-1.020617180e+00,2.821891472e-02,5.277549998e-01
5.858585859e-01,1.165114017e-04,-1.120998863e-06,-2.912425449e-06,-9.691099808e-01,2.678462955e-02,6.059263603e-01
5.959595960e-01,1.268169212e-04,-8.509927524e-07,-3.130968014e-06,-9.180919006e-01,2.558457383e-02,6.403641115e-01
6.060606061e-01,1.376859139e-04,-5.321771224e-07,-3.279050010e-06,-8.658447993e-01,2.412704661e-02,7.059938549e-01
6.161616162e-01,1.498751414e-04,-2.011337501e-07,-3.390750364e-06,-8.150226296e-01,2.266360223e-02,7.267335314e-01
6.262626263e-01,1.632959798e-04,1.442769757e-07,-3.471500124e-06,-7.646299093e-01,2.127729623e-02,7.981410158e-01
6.363636364e-01,1.781777666e-04,4.937721483e-07,-3.463518603e-06,-7.145934118e-01,1.963510165e-02,8.609434148e-01
6.464646465e-01,1.919091527e-04,8.436639040e-07,-3.451161156e-06,-6.655202202e-01,1.851284876e-02,9.120508674e-01
6.565656566e-01,2.074292305e-04,1.176162512e-06,-3.345390155e-06,-6.163586126e-01,1.709558352e-02,9.694174673e-01
6.666666667e-01,2.248613307e-04,1.496065506e-06,-3.192033463e-06,-5.662555916e-01,1.567737814e-02,9.762826431e-01
6.767676768e-01,2.377901232e-04,1.758449168e-06,-2.990876005e-06,-5.196466393e-01,1.459062942e-02,1.082295771e+00
6.868686869e-01,2.550848345e-04,1.982553612e-06,-2.722810975e-06,-4.707205924e-01,1.320391290e-02,1.123236824e+00
6.969696970e-01,2.719073070e-04,2.173186548e-06,-2.448977350e-06,-4.224972692e-01,1.204151607e-02,1.153964025e+00
7.070707071e-01,2.885088838e-04,2.309092520e-06,-2.152221183e-06,-3.751250281e-01,1.094099679e-02,1.204349580e+00
7.171717172e-01,3.036912733e-04,2.376455496e-06,-1.813919755e-06,-3.259756368e-01,9.844283486e-03,1.235747665e+00
7.272727273e-01,3.186580300e-04,2.393499177e-06,-1.484232823e-06,-2.775375975e-01,8.838134581e-03,1.295201202e+00
7.373737374e-01,3.332403084e-04,2.363857868e-06,-1.169858277e-06,-2.297771003e-01,7.914700922e-03,1.321627428e+00
7.474747475e-01,3.476555173e-04,2.290463099e-06,-8.568597192e-07,-1.789902141e-01,7.034238220e-03,1.412374091e+00
7.575757576e-01,3.579357189e-04,2.158274965e-06,-5.633103943e-07,-1.276523916e-01,6.231778254e-03,1.449031977e+00
7.676767677e-01,3.706475815e-04,2.001638829e-06,-3.037411623e-07,-7.529866043e-02,5.462206034e-03,1.492124075e+00
7.777777778e-01,3.804253611e-04,1.812211956e-06,-7.539819540e-08,-2.079081722e-02,4.767767762e-03,1.542783028e+00
7.878787879e-01,3.872116863e-04,1.592254104e-06,1.190559102e-07,3.731652411e-02,4.123581432e-03,1.605808593e+00
7.979797980e-01,3.925513065e-04,1.368061027e-06,2.670214032e-07,9.637948383e-02,3.550813285e-03,1.664242582e+00
8.080808081e-01,3.950436420e-04,1.144148431e-06,3.854782839e-07,1.624843166e-01,3.056218520e-03,1.727220305e+00
8.181818182e-01,3.979951228e-04,8.989586018e-07,4.574194704e-07,2.353443601e-01,2.534308006e-03,1.800781871e+00
8.282828283e-01,3.988467206e-04,7.151125926e-07,5.035877164e-07,3.067721364e-01,2.192910418e-03,1.864996967e+00
8.383838384e-01,3.977378942e-04,5.110698993e-07,5.130709824e-07,3.936760374e-01,1.820742643e-03,1.957742419e+00
8.484848485e-01,3.950476010e-04,3.361258620e-07,4.944767288e-07,4.868916509e-01,1.513495738e-03,2.045541636e+00
8.585858586e-01,3.906618286e-04,1.806910147e-07,4.518305085e-07,5.951842690e-01,1.245632461e-03,2.148858260e+00
8.686868687e-01,3.854084385e-04,5.239366884e-08,3.922093674e-07,7.189982894e-01,1.026685933e-03,2.238756962e+00
8.787878788e-01,3.771972728e-04,-4.618284378e-08,3.201154663e-07,8.570385251e-01,8.574550165e-04,2.468048290e+00
8.888888889e-01,3.702012165e-04,-1.205755599e-07,2.434196637e-07,1.015354601e+00,7.337795721e-04,1.514018194e+00
8.989898990e-01,3.602409157e-04,-1.677485255e-07,1.583171302e-07,1.192555631e+00,6.402928039e-04,9.821647434e-01
9.090909091e-01,3.520942623e-04,-1.946214702e-07,7.300413885e-08,1.391363497e+00,5.903624362e-04,-1.226161481e-01
9.191919192e-01,3.427748341e-04,-1.976480772e-07,-8.301656145e-09,-1.549807558e+00,5.771203853e-04,-2.902358782e-01
9.292929293e-01,3.300179777e-04,-1.779410352e-07,-8.352116812e-08,-1.351371685e+00,5.956267617e-04,-4.249281837e-01
9.393939394e-01,3.194117504e-04,-1.439784583e-07,-1.514708329e-07,-1.165420333e+00,6.542694868e-04,-1.382643554e+00
9.494949495e-01,3.060483798e-04,-9.353457291e-08,-2.068465130e-07,-9.977362835e-01,7.417501945e-04,-2.506692458e+00
9.595959596e-01,2.935118851e-04,-3.111165443e-08,-2.538183806e-07,-8.463812011e-01,8.712356543e-04,-2.380326651e+00
9.696969697e-01,2.798462619e-04,3.962476907e-08,-2.859138826e-07,-7.165418354e-01,1.031447113e-03,-2.243189842e+00
9.797979798e-01,2.682754659e-04,1.152378231e-07,-3.112427475e-07,-6.080979880e-01,1.237128605e-03,-2.125869831e+00
9.898989899e-01,2.572296687e-04,1.958912762e-07,-3.198467842e-07,-5.106350712e-01,1.458102167e-03,-2.060311505e+00
1.000000000e+00,2.462582087e-04,2.800927719e-07,-3.172563766e-07,-4.237661446e-01,1.718546962e-03,-2.034503262e+00
